#TITLE:Ultramania;
#SUBTITLE:;
#ARTIST:Seo Taiji;
#TITLETRANSLIT:;
#SUBTITLETRANSLIT:;
#ARTISTTRANSLIT:;
#CRChallenge:;
#BANNER:ultra.png;
#BACKGROUND:ultra-bg.png;
#LYRICSPATH:ultra.lrc;
#CDTITLE:!cdtitle.png;
#MUSIC:ultra.ogg;
#OFFSET:0.000;
#SAMPLESTART:39.699;
#SAMPLELENGTH:12.000;
#SELECTABLE:YES;
#BPMS:0.000=83.000,11.000=166.000,13.000=83.000,16.000=166.000,18.000=83.000,19.000=166.000,21.000=83.000,30.000=166.000,32.000=83.000,35.000=166.000,37.000=83.000,38.000=166.000,40.000=83.000,42.000=41.500,44.000=83.000;
#STOPS:;
#BGCHANGES:;

#NOTES:
     dance-single:
     Renard:
     Medium:
     9:
     0.517,0.526,0.273,0.120,0.665:
0000
0000
0000
0000
,
1000
0100
0000
0100
0010
0000
0001
0000
0100
0010
0000
0010
1000
0000
0100
0000
,
0010
0001
0000
0001
0010
0000
0100
0000
1000
0001
0000
0001
0200
0000
0000
0000
,
0000
0000
0000
0000
0310
1000
0000
0001
0100
0000
0010
0000
1000
0100
0000
0010
,
0002
0000
0000
0000
0000
0000
0000
0000
0013
0100
0000
0100
2000
0000
0000
0000
,
0000
0000
0000
0000
0000
0000
0000
0000
3010
0000
0100
0000
0000
0000
0001
0000
1000
0100
0010
0001
0010
0100
1000
0100
0010
0000
0001
0000
0000
0000
0001
0000
,
1000
0000
0100
0000
1000
0010
0000
0010
0100
0000
0001
0000
0010
0100
0000
0100
,
1000
0000
0001
0000
0100
0010
0000
0010
2000
0000
0000
0000
0000
0000
0000
0000
,
3010
0100
0000
0100
0001
0000
0010
0000
0100
1000
0000
1000
0002
0000
0000
0000
,
0000
0000
0000
0000
0013
0001
0000
0001
0200
0000
0000
0000
0000
0000
0000
0000
,
0310
1000
0000
0010
0100
0000
0001
0000
2000
0000
0100
0000
0100
0010
0010
3010
,
1010
0000
0000
0000
0101
0000
0000
0000
0011
0000
0001
0010
0100
1000
0100
0010
,
0001
0000
0000
0000
1100
0000
0000
0000
1001
0000
1000
0100
0010
0001
0100
0010
,
2000
0000
0000
0000
3010
0100
0001
0010
0200
0000
0000
0000
1300
0001
0100
0010
,
1000
0000
0000
0100
1000
0000
0000
0001
0100
0000
0010
0000
1000
0010
0000
0010
,
0100
0000
0000
0100
0001
0000
0010
0100
1000
0100
0010
0000
0011
0000
0001
0000
,
1001
0000
0000
0000
1000
0010
0000
0010
0100
0001
0010
0100
1000
0000
1100
0000
,
0011
0000
0000
0000
0001
0100
0010
1000
0010
0100
0001
0000
0101
0000
0000
0000
,
0001
0000
0001
0010
0000
0100
1000
0100
0010
0001
1000
0000
0000
0000
0000
0000
,
0110
0000
1001
0000
0001
0010
0100
0000
1100
0000
0000
0000
1000
0100
0010
0000
,
0011
0000
0000
0000
0000
0000
0000
0000
0000
0000
0000
0000
0010
0000
0000
0000
0100
0000
0000
0000
1000
0000
0000
0000
0100
0000
0000
0000
0010
0000
0000
0000
0001
0000
0000
0000
0000
0000
0000
0010
0000
0000
0100
0000
0000
1000
0000
0000
,
0001
0100
0010
1000
0002
0000
0000
0000
0103
0010
1000
0100
0020
0000
0000
0000
,
0031
0010
0100
1000
0001
0000
0000
0010
0001
0000
0000
1000
0010
0000
0100
0000
,
0001
0100
0000
0100
0010
0000
0000
0000
1000
0100
0010
0001
0010
0000
0100
0000
,
1000
0001
0000
0001
0100
0000
0000
0000
0010
1000
0010
0100
0001
0100
0010
0000
,
1000
0010
0000
0100
0001
0000
0100
0000
0010
1000
0100
0010
0001
0000
0010
0000
,
0100
1000
0000
1000
0001
0000
0000
0010
0000
0001
1000
0100
0010
0001
1000
0000
,
0101
0000
1001
0000
1001
0000
1000
0100
0010
0001
0010
0100
1000
0001
0010
0100
,
1000
0000
1001
0000
0101
0000
0010
1000
0001
0100
0010
1000
0100
0010
0001
0010
,
0100
0000
1100
0000
1001
0000
0001
0100
0010
1000
0100
0010
0100
1000
0001
0010
,
0100
0000
0011
0000
1100
0000
1000
0010
0100
0001
0100
0010
1000
0001
0100
0000
,
0110
1001
0000
0000
0000
0000
0000
0000
;

#NOTES:
     dance-single:
     Renard:
     Hard:
     9:
     0.740,0.662,0.949,0.382,0.840:
0000
0000
0000
0000
,
1100
1100
0000
1100
1110
0000
1100
0000
0101
0101
0000
0101
0111
0000
0101
0000
,
1001
1001
0000
1001
1011
0000
1001
0000
0101
0101
0000
0101
2002
0000
0000
0000
,
0000
0000
3003
0000
1100
1100
0000
1100
1001
0000
1001
0000
0101
0101
0000
0101
,
2002
0000
0000
0000
0000
0000
0003
3000
1100
1100
0000
1100
2002
0000
0000
0000
,
0000
0000
0000
3003
0101
0101
0000
0101
0001
0100
0010
1000
1100
1100
0000
1100
,
1110
0000
1100
0000
1001
1001
0000
1001
1011
0000
1001
0000
0101
0101
0000
0101
,
0111
0000
0101
0000
1001
1001
0000
1001
2002
0000
0000
0000
0000
0000
3003
0000
,
1100
1100
0000
1100
1001
0000
1001
0000
0101
0101
0000
0101
2002
0000
0000
0000
,
0000
0000
3003
0000
0110
0110
0000
0110
2002
0000
0000
0000
0000
0000
0000
3003
,
0110
0110
0000
0110
1001
0000
0100
0000
0020
0000
0100
0000
0100
0000
0130
0000
,
0010
1000
0100
0001
0100
1000
0001
0010
1000
0001
0100
1000
0010
0001
1000
0100
,
0010
1000
0100
0001
1000
0010
0001
0010
0100
0001
0100
1000
0010
0100
0001
0010
,
2000
0000
0000
0000
3010
0001
0100
1000
0200
0000
0000
0000
0310
1000
0100
0010
,
0001
0010
1000
0010
0100
0001
0100
1000
0001
0010
1000
0010
0001
1000
0100
1000
,
2200
0000
0000
3300
1000
0010
0100
0001
0010
0100
1000
0010
0100
0001
0010
0100
,
0220
0000
0000
0330
0010
0001
0100
0010
1000
0100
0010
0100
1000
0010
0100
0001
,
0022
0000
0000
0033
0010
0001
0010
0100
1000
0010
0100
0001
0010
0100
1000
0001
,
2002
0000
0000
3003
1000
0010
0100
0002
0010
0010
0013
0000
0000
0000
0000
0000
,
1011
0000
0000
0000
0100
0001
0010
1000
0010
0001
1000
0100
0001
1000
0010
0001
,
0100
1000
0001
0010
0100
0001
0010
1000
0001
0100
1000
0100
0010
1000
0010
0001
,
0100
0010
1000
0100
0002
0000
0000
0000
0103
1000
0010
0001
0020
0000
0000
0000
,
0130
0001
0010
0100
1000
0100
0001
0100
0010
1000
0010
0001
1000
0100
0001
0100
,
1000
0001
0010
0001
0022
0000
0000
0033
0001
0100
0010
1000
0100
0010
0001
0100
,
0010
1000
0100
0010
0220
0000
0000
0330
0100
1000
0010
0100
0001
0010
0100
0010
,
0001
0100
0010
1000
2200
0000
0000
3300
0100
1000
0100
0010
0001
0100
0010
1000
,
0100
0010
0001
1000
2002
0000
0000
3003
0001
0100
0010
2000
0100
0100
3100
0000
,
1100
0000
1110
0000
1000
0100
0000
0100
0010
0001
0100
0010
1000
0100
0001
0100
,
1000
0000
1100
0000
1000
0010
0000
0010
0100
0001
0010
0100
0001
0100
1000
0100
,
0001
0000
0101
0000
0100
0000
1000
0001
0010
1000
0010
0001
0100
1000
0100
0001
,
0100
0000
0101
0000
0100
0000
0010
1000
0100
0001
0100
0010
0001
0010
1000
0010
,
1010
0011
0000
0000
0000
0000
0000
0000
;

#NOTES:
     dance-single:
     Renard:
     Easy:
     4:
     0.291,0.323,0.535,0.142,0.000:
0000
0000
0000
0000
,
0000
0000
0000
0000
,
0000
0000
0000
0000
,
0000
0000
0000
0000
,
0000
0000
0000
0000
,
0000
0000
0000
1000
,
1001
0001
0101
0000
0110
0010
1010
0000
,
1100
0100
0110
0000
1001
0000
0000
0000
,
0110
0000
0110
0100
0101
0000
1001
0000
,
0000
1100
0110
0000
,
0011
0000
1001
1000
1020
1000
1000
1000
,
1030
0000
0101
0000
0101
0000
0001
0010
,
0100
0000
0110
0000
1100
0000
1000
0100
,
0010
0000
0000
0010
0001
0000
0000
0001
,
1000
1001
0101
1001
,
2100
0000
0000
0000
3001
1000
0010
0000
,
0210
0000
0000
0000
0301
0100
0010
0000
,
1020
0000
0000
0000
0130
0001
1000
0000
,
1200
0000
0310
0010
0001
0001
0000
0000
,
0000
0000
0001
0001
0001
0000
1000
1000
,
1000
0000
0020
0000
0230
0000
0301
0001
,
0001
0000
2001
0000
3010
0010
0210
0000
,
0301
0001
1000
0000
0100
0000
0010
0010
,
0010
0000
1002
0000
1003
1000
0001
0001
,
1000
0000
0210
0000
0310
0010
0100
0100
,
0010
0000
2010
0000
3010
0010
1000
1000
,
0001
0000
0201
0000
0301
0001
1001
1001
,
0000
1100
0110
0011
,
0001
1000
1100
0000
0110
0000
0011
0000
,
0001
1000
0101
0000
0110
0000
1010
0000
,
1000
0001
0101
0000
0110
0000
1010
0000
,
1001
0110
0000
0000
0000
0000
0000
0000
;

#NOTES:
     dance-single:
     Renard:
     Beginner:
     2:
     0.207,0.239,0.327,0.229,0.000:  0000
0000
0000
0000
,  0000
0000
0000
0000
,  0000
0000
0000
0000
,  0000
0000
0000
0000
,  0000
0000
0000
0000
,  0000
0000
0000
1000
,  1001
0001
1001
1000
,  1001
0001
0110
0000
,  1000
1001
0001
0110
,  0000
1000
0110
0000
,  0001
0100
1002
1000
,  1003
1000
1000
0000
,  0001
0001
0001
0000
,  0220
0330
2002
3003
,  1000
0100
0010
0001
,  2200
3300
0010
0001
,  0202
0303
0010
1000
,  2200
3300
0010
0001
,  2020
3030
0100
0000
,  0000
0001
0001
1000
,  1000
0010
0010
0000
,  0100
2002
3003
0220
,  0330
0010
0100
0001
,  0000
2001
3010
0000
,  0010
1002
0013
0000
,  0010
2001
3100
0000
,  0100
1002
0103
1001
,  0000
0010
0110
0100
,  0110
0001
1001
1000
,  1001
0100
0110
0010
,  0110
1000
1001
0001
,  1001
0110
0000
0000
;
